Data from QEPB03971_15-47-52-077.txt Node
Date: Thu Dec 12 15:47:52 CET 2024
User: asdfg
Spectrometer: QEPB0397
Trigger mode: 0
Integration Time (sec): 1,000000E-1
Scans to average: 1
Electric dark correction enabled: true
Nonlinearity correction enabled: false
Boxcar width: 0
XAxis mode: Wavelengths
Number of Pixels in Spectrum: 1044
>>>>>Begin Spectral Data<<<<<
198,666	40,62
199,473	42,62
200,28	41,62
201,087	39,62
201,893	43,62
202,7	40,62
203,507	43,62
204,313	44,62
205,119	40,62
205,926	47,62
206,732	41,62
207,538	40,62
208,344	39,62
209,15	42,62
209,956	37,62
210,762	40,62
211,567	43,62
212,373	40,62
213,179	46,62
213,984	45,62
214,789	43,62
215,595	43,62
216,4	41,62
217,205	44,62
218,01	43,62
218,816	45,62
219,621	41,62
220,425	45,62
221,23	41,62
222,035	42,62
222,84	38,62
223,644	42,62
224,449	40,62
225,253	38,62
226,058	43,62
226,862	47,62
227,666	45,62
228,47	45,62
229,274	41,62
230,078	43,62
230,882	39,62
231,686	40,62
232,49	42,62
233,294	42,62
234,097	46,62
234,901	41,62
235,704	42,62
236,508	45,62
237,311	51,62
238,114	42,62
238,917	37,62
239,721	42,62
240,524	42,62
241,326	53,62
242,129	38,62
242,932	45,62
243,735	45,62
244,537	44,62
245,34	42,62
246,143	43,62
246,945	45,62
247,747	44,62
248,55	45,62
249,352	44,62
250,154	44,62
250,956	44,62
251,758	36,62
252,56	44,62
253,361	42,62
254,163	53,62
254,965	39,62
255,766	47,62
256,568	41,62
257,369	44,62
258,171	41,62
258,972	48,62
259,773	41,62
260,574	43,62
261,375	42,62
262,176	42,62
262,977	37,62
263,778	40,62
264,579	37,62
265,379	46,62
266,18	41,62
266,98	45,62
267,781	40,62
268,581	44,62
269,381	40,62
270,182	39,62
270,982	41,62
271,782	42,62
272,582	32,62
273,382	46,62
274,182	40,62
274,981	46,62
275,781	46,62
276,581	42,62
277,38	40,62
278,179	40,62
278,979	42,62
279,778	43,62
280,577	44,62
281,376	48,62
282,176	47,62
282,975	40,62
283,773	39,62
284,572	42,62
285,371	45,62
286,17	46,62
286,968	43,62
287,767	44,62
288,565	41,62
289,364	43,62
290,162	38,62
290,96	42,62
291,758	38,62
292,556	41,62
293,354	37,62
294,152	41,62
294,95	39,62
295,748	48,62
296,545	44,62
297,343	68,62
298,141	45,62
298,938	45,62
299,735	47,62
300,533	43,62
301,33	47,62
302,127	47,62
302,924	38,62
303,721	45,62
304,518	42,62
305,315	47,62
306,112	41,62
306,908	45,62
307,705	45,62
308,501	42,62
309,298	42,62
310,094	40,62
310,891	31,62
311,687	43,62
312,483	46,62
313,279	43,62
314,075	46,62
314,871	40,62
315,667	39,62
316,462	47,62
317,258	39,62
318,054	42,62
318,849	44,62
319,645	43,62
320,44	41,62
321,235	42,62
322,031	40,62
322,826	48,62
323,621	43,62
324,416	40,62
325,211	40,62
326,006	46,62
326,8	46,62
327,595	43,62
328,39	41,62
329,184	44,62
329,979	45,62
330,773	48,62
331,567	41,62
332,362	40,62
333,156	44,62
333,95	38,62
334,744	45,62
335,538	40,62
336,331	43,62
337,125	47,62
337,919	49,62
338,712	40,62
339,506	44,62
340,299	39,62
341,093	38,62
341,886	41,62
342,679	37,62
343,472	45,62
344,266	46,62
345,059	39,62
345,851	47,62
346,644	40,62
347,437	42,62
348,23	47,62
349,022	44,62
349,815	45,62
350,607	42,62
351,4	38,62
352,192	41,62
352,984	44,62
353,776	38,62
354,568	47,62
355,36	48,62
356,152	40,62
356,944	42,62
357,736	46,62
358,527	42,62
359,319	50,62
360,111	44,62
360,902	38,62
361,693	41,62
362,485	42,62
363,276	37,62
364,067	42,62
364,858	41,62
365,649	42,62
366,44	39,62
367,231	37,62
368,021	44,62
368,812	38,62
369,603	38,62
370,393	41,62
371,184	40,62
371,974	41,62
372,764	43,62
373,554	41,62
374,345	39,62
375,135	43,62
375,925	38,62
376,714	39,62
377,504	37,62
378,294	37,62
379,084	43,62
379,873	45,62
380,663	41,62
381,452	45,62
382,242	43,62
383,031	35,62
383,82	35,62
384,609	43,62
385,398	40,62
386,187	44,62
386,976	41,62
387,765	37,62
388,553	44,62
389,342	43,62
390,131	43,62
390,919	44,62
391,708	46,62
392,496	45,62
393,284	47,62
394,072	38,62
394,86	40,62
395,648	38,62
396,436	41,62
397,224	49,62
398,012	42,62
398,8	39,62
399,587	46,62
400,375	40,62
401,162	42,62
401,95	41,62
402,737	37,62
403,524	43,62
404,312	44,62
405,099	42,62
405,886	34,62
406,673	42,62
407,459	41,62
408,246	46,62
409,033	37,62
409,819	41,62
410,606	36,62
411,392	39,62
412,179	36,62
412,965	41,62
413,751	43,62
414,538	47,62
415,324	46,62
416,11	46,62
416,895	40,62
417,681	45,62
418,467	41,62
419,253	44,62
420,038	48,62
420,824	43,62
421,609	39,62
422,395	39,62
423,18	40,62
423,965	45,62
424,75	45,62
425,535	43,62
426,32	43,62
427,105	45,62
427,89	46,62
428,675	47,62
429,459	42,62
430,244	46,62
431,029	44,62
431,813	42,62
432,597	44,62
433,382	37,62
434,166	41,62
434,95	35,62
435,734	42,62
436,518	47,62
437,302	41,62
438,086	37,62
438,869	42,62
439,653	40,62
440,436	40,62
441,22	39,62
442,003	44,62
442,787	44,62
443,57	42,62
444,353	43,62
445,136	45,62
445,919	43,62
446,702	41,62
447,485	39,62
448,268	45,62
449,05	38,62
449,833	44,62
450,616	40,62
451,398	47,62
452,18	43,62
452,963	44,62
453,745	42,62
454,527	38,62
455,309	39,62
456,091	39,62
456,873	46,62
457,655	39,62
458,437	41,62
459,218	46,62
460	38,62
460,781	42,62
461,563	41,62
462,344	40,62
463,125	38,62
463,907	37,62
464,688	44,62
465,469	41,62
466,25	39,62
467,031	44,62
467,811	44,62
468,592	42,62
469,373	43,62
470,153	48,62
470,934	48,62
471,714	38,62
472,495	44,62
473,275	45,62
474,055	36,62
474,835	37,62
475,615	41,62
476,395	36,62
477,175	46,62
477,955	38,62
478,734	38,62
479,514	37,62
480,294	41,62
481,073	36,62
481,852	42,62
482,632	37,62
483,411	39,62
484,19	45,62
484,969	42,62
485,748	38,62
486,527	44,62
487,306	41,62
488,085	41,62
488,863	45,62
489,642	43,62
490,42	41,62
491,199	38,62
491,977	38,62
492,756	43,62
493,534	40,62
494,312	43,62
495,09	39,62
495,868	43,62
496,646	44,62
497,424	37,62
498,201	38,62
498,979	41,62
499,756	40,62
500,534	39,62
501,311	42,62
502,089	41,62
502,866	41,62
503,643	47,62
504,42	38,62
505,197	41,62
505,974	39,62
506,751	45,62
507,528	41,62
508,304	41,62
509,081	40,62
509,858	45,62
510,634	45,62
511,41	40,62
512,187	36,62
512,963	42,62
513,739	46,62
514,515	44,62
515,291	41,62
516,067	37,62
516,843	43,62
517,618	40,62
518,394	41,62
519,17	44,62
519,945	40,62
520,721	43,62
521,496	39,62
522,271	36,62
523,046	39,62
523,821	41,62
524,596	39,62
525,371	39,62
526,146	41,62
526,921	40,62
527,696	38,62
528,47	42,62
529,245	39,62
530,019	42,62
530,794	39,62
531,568	41,62
532,342	46,62
533,116	41,62
533,89	38,62
534,664	44,62
535,438	42,62
536,212	37,62
536,986	42,62
537,76	38,62
538,533	36,62
539,307	40,62
540,08	44,62
540,853	42,62
541,627	40,62
542,4	41,62
543,173	42,62
543,946	44,62
544,719	39,62
545,492	44,62
546,265	40,62
547,037	39,62
547,81	40,62
548,582	46,62
549,355	37,62
550,127	44,62
550,9	41,62
551,672	42,62
552,444	43,62
553,216	38,62
553,988	39,62
554,76	41,62
555,532	43,62
556,304	41,62
557,075	42,62
557,847	38,62
558,618	40,62
559,39	36,62
560,161	39,62
560,932	45,62
561,703	42,62
562,475	41,62
563,246	40,62
564,017	44,62
564,787	41,62
565,558	40,62
566,329	37,62
567,099	39,62
567,87	40,62
568,64	40,62
569,411	44,62
570,181	40,62
570,951	49,62
571,722	39,62
572,492	41,62
573,262	41,62
574,031	42,62
574,801	41,62
575,571	44,62
576,341	39,62
577,11	45,62
577,88	43,62
578,649	37,62
579,419	35,62
580,188	44,62
580,957	41,62
581,726	38,62
582,495	34,62
583,264	38,62
584,033	36,62
584,802	45,62
585,57	36,62
586,339	36,62
587,107	41,62
587,876	38,62
588,644	44,62
589,413	38,62
590,181	41,62
590,949	38,62
591,717	36,62
592,485	45,62
593,253	42,62
594,021	38,62
594,788	39,62
595,556	41,62
596,324	37,62
597,091	42,62
597,858	42,62
598,626	40,62
599,393	35,62
600,16	45,62
600,927	40,62
601,694	38,62
602,461	46,62
603,228	39,62
603,995	37,62
604,761	35,62
605,528	38,62
606,294	41,62
607,061	42,62
607,827	37,62
608,594	36,62
609,36	38,62
610,126	41,62
610,892	47,62
611,658	36,62
612,424	41,62
613,189	42,62
613,955	39,62
614,721	43,62
615,486	41,62
616,252	38,62
617,017	37,62
617,782	40,62
618,548	41,62
619,313	34,62
620,078	36,62
620,843	40,62
621,608	37,62
622,373	42,62
623,137	43,62
623,902	45,62
624,667	40,62
625,431	42,62
626,195	47,62
626,96	42,62
627,724	40,62
628,488	40,62
629,252	41,62
630,016	35,62
630,78	38,62
631,544	37,62
632,308	37,62
633,071	42,62
633,835	42,62
634,599	40,62
635,362	41,62
636,125	38,62
636,889	37,62
637,652	41,62
638,415	37,62
639,178	38,62
639,941	36,62
640,704	41,62
641,467	38,62
642,229	40,62
642,992	43,62
643,754	44,62
644,517	38,62
645,279	39,62
646,042	45,62
646,804	36,62
647,566	38,62
648,328	35,62
649,09	38,62
649,852	41,62
650,614	43,62
651,375	39,62
652,137	41,62
652,899	38,62
653,66	37,62
654,422	44,62
655,183	44,62
655,944	43,62
656,705	41,62
657,466	43,62
658,227	37,62
658,988	39,62
659,749	38,62
660,51	41,62
661,271	48,62
662,031	37,62
662,792	43,62
663,552	40,62
664,312	45,62
665,073	41,62
665,833	37,62
666,593	38,62
667,353	44,62
668,113	43,62
668,873	37,62
669,632	38,62
670,392	36,62
671,152	37,62
671,911	37,62
672,671	41,62
673,43	40,62
674,189	42,62
674,949	45,62
675,708	42,62
676,467	41,62
677,226	37,62
677,985	46,62
678,743	40,62
679,502	40,62
680,261	39,62
681,019	39,62
681,778	48,62
682,536	39,62
683,294	40,62
684,053	39,62
684,811	40,62
685,569	44,62
686,327	44,62
687,085	34,62
687,843	36,62
688,6	40,62
689,358	42,62
690,115	42,62
690,873	41,62
691,63	37,62
692,388	42,62
693,145	37,62
693,902	35,62
694,659	37,62
695,416	39,62
696,173	45,62
696,93	51,62
697,687	36,62
698,443	39,62
699,2	41,62
699,956	37,62
700,713	41,62
701,469	38,62
702,225	40,62
702,981	40,62
703,738	43,62
704,494	41,62
705,249	36,62
706,005	39,62
706,761	42,62
707,517	45,62
708,272	41,62
709,028	41,62
709,783	40,62
710,539	44,62
711,294	39,62
712,049	44,62
712,804	37,62
713,559	43,62
714,314	41,62
715,069	35,62
715,824	43,62
716,578	37,62
717,333	40,62
718,088	40,62
718,842	40,62
719,596	36,62
720,351	39,62
721,105	41,62
721,859	38,62
722,613	42,62
723,367	48,62
724,121	47,62
724,875	38,62
725,628	41,62
726,382	38,62
727,135	43,62
727,889	42,62
728,642	40,62
729,396	47,62
730,149	41,62
730,902	39,62
731,655	39,62
732,408	42,62
733,161	43,62
733,914	42,62
734,666	44,62
735,419	45,62
736,171	44,62
736,924	33,62
737,676	39,62
738,429	38,62
739,181	39,62
739,933	39,62
740,685	40,62
741,437	46,62
742,189	45,62
742,941	36,62
743,692	38,62
744,444	42,62
745,196	47,62
745,947	40,62
746,698	47,62
747,45	40,62
748,201	44,62
748,952	39,62
749,703	41,62
750,454	45,62
751,205	41,62
751,956	45,62
752,707	43,62
753,457	44,62
754,208	47,62
754,958	46,62
755,709	45,62
756,459	47,62
757,209	46,62
757,959	39,62
758,709	45,62
759,459	46,62
760,209	39,62
760,959	42,62
761,709	43,62
762,458	46,62
763,208	51,62
763,957	49,62
764,707	49,62
765,456	48,62
766,205	50,62
766,955	53,62
767,704	52,62
768,453	46,62
769,202	52,62
769,95	61,62
770,699	61,62
771,448	67,62
772,196	64,62
772,945	71,62
773,693	72,62
774,442	75,62
775,19	80,62
775,938	85,62
776,686	96,62
777,434	113,62
778,182	95,62
778,93	99,62
779,677	103,62
780,425	108,62
781,173	104,62
781,92	104,62
782,668	108,62
783,415	114,62
784,162	102,62
784,909	106,62
785,656	100,62
786,403	98,62
787,15	95,62
787,897	95,62
788,644	91,62
789,39	84,62
790,137	81,62
790,883	75,62
791,63	71,62
792,376	75,62
793,122	64,62
793,869	58,62
794,615	59,62
795,361	56,62
796,107	52,62
796,852	50,62
797,598	52,62
798,344	52,62
799,089	49,62
799,835	43,62
800,58	44,62
801,326	48,62
802,071	50,62
802,816	48,62
803,561	48,62
804,306	44,62
805,051	44,62
805,796	43,62
806,54	44,62
807,285	45,62
808,03	45,62
808,774	43,62
809,519	46,62
810,263	43,62
811,007	38,62
811,751	43,62
812,495	49,62
813,239	37,62
813,983	42,62
814,727	42,62
815,471	43,62
816,214	40,62
816,958	44,62
817,701	49,62
818,445	46,62
819,188	48,62
819,931	47,62
820,675	50,62
821,418	48,62
822,161	46,62
822,903	48,62
823,646	47,62
824,389	50,62
825,132	60,62
825,874	58,62
826,617	56,62
827,359	59,62
828,101	63,62
828,844	60,62
829,586	63,62
830,328	69,62
831,07	73,62
831,812	75,62
832,553	79,62
833,295	76,62
834,037	77,62
834,778	82,62
835,52	81,62
836,261	84,62
837,003	86,62
837,744	86,62
838,485	79,62
839,226	86,62
839,967	80,62
840,708	76,62
841,449	69,62
842,189	65,62
842,93	67,62
843,67	58,62
844,411	131,62
845,151	58,62
845,892	53,62
846,632	51,62
847,372	52,62
848,112	51,62
848,852	40,62
849,592	51,62
850,332	49,62
851,071	47,62
851,811	45,62
852,55	41,62
853,29	43,62
854,029	46,62
854,768	43,62
855,508	43,62
856,247	44,62
856,986	38,62
857,725	40,62
858,464	37,62
859,202	39,62
859,941	43,62
860,68	42,62
861,418	43,62
862,157	40,62
862,895	42,62
863,633	37,62
864,371	38,62
865,11	36,62
865,848	38,62
866,585	43,62
867,323	37,62
868,061	43,62
868,799	41,62
869,536	31,62
870,274	38,62
871,011	37,62
871,749	41,62
872,486	46,62
873,223	38,62
873,96	39,62
874,697	39,62
875,434	37,62
876,171	35,62
876,908	37,62
877,644	34,62
878,381	40,62
879,117	38,62
879,854	44,62
880,59	39,62
881,326	42,62
882,063	38,62
882,799	39,62
883,535	37,62
884,27	37,62
885,006	35,62
885,742	37,62
886,478	34,62
887,213	39,62
887,949	36,62
888,684	47,62
889,419	37,62
890,155	42,62
890,89	37,62
891,625	39,62
892,36	41,62
893,095	43,62
893,829	38,62
894,564	39,62
895,299	41,62
896,033	30,62
896,768	39,62
897,502	42,62
898,236	37,62
898,971	35,62
899,705	38,62
900,439	39,62
901,173	41,62
901,907	42,62
902,64	33,62
903,374	42,62
904,108	37,62
904,841	38,62
905,575	41,62
906,308	40,62
907,041	38,62
907,775	39,62
908,508	37,62
909,241	38,62
909,974	41,62
910,706	33,62
911,439	39,62
912,172	41,62
912,904	40,62
913,637	33,62
914,369	42,62
915,102	35,62
915,834	36,62
916,566	37,62
917,298	42,62
918,03	45,62
918,762	42,62
919,494	39,62
920,226	39,62
920,957	41,62
921,689	42,62
922,42	39,62
923,152	39,62
923,883	35,62
924,614	42,62
925,345	39,62
926,077	41,62
926,807	40,62
927,538	37,62
928,269	40,62
929	43,62
929,731	42,62
930,461	37,62
931,192	46,62
931,922	35,62
932,652	41,62
933,382	40,62
934,113	51,62
934,843	42,62
935,572	39,62
936,302	31,62
937,032	44,62
937,762	36,62
938,491	38,62
939,221	35,62
939,95	36,62
940,68	41,62
941,409	41,62
942,138	36,62
942,867	36,62
943,596	39,62
944,325	38,62
945,054	34,62
945,783	42,62
946,511	38,62
947,24	42,62
947,969	40,62
948,697	38,62
949,425	39,62
950,153	31,62
950,882	39,62
951,61	40,62
952,338	42,62
953,066	38,62
953,793	37,62
954,521	36,62
955,249	43,62
955,976	38,62
956,704	39,62
957,431	37,62
958,158	38,62
958,886	40,62
959,613	39,62
960,34	39,62
961,067	36,62
961,794	45,62
962,52	38,62
963,247	41,62
963,974	40,62
964,7	35,62
965,427	46,62
966,153	40,62
966,879	32,62
967,605	37,62
968,332	39,62
969,058	42,62
969,783	41,62
970,509	40,62
971,235	37,62
971,961	37,62
972,686	36,62
973,412	41,62
974,137	55,62
974,862	34,62
975,588	39,62
976,313	38,62
977,038	39,62
977,763	39,62
978,488	34,62
979,213	52,62
979,937	34,62
980,662	36,62
981,386	38,62
982,111	38,62
982,835	42,62
983,56	5,62
984,284	1,62
985,008	4,62
985,732	-0,38
986,456	49,62
987,18	41,62
987,904	44,62
988,627	46,62
989,351	44,62
990,074	39,62
990,798	38,62
991,521	38,62
992,244	44,62
992,967	41,62
993,691	37,62
994,414	39,62
995,136	-6,38
995,859	-4,38
996,582	-2,38
997,305	1,62
